Time (hours),Current Slot,Peers Connected
0.01540777775976393,0,1
0.018839722209506565,34,20
0.022201944457160103,95,19
0.025745277802149455,161,31
0.02882305555873447,199,27
0.0321655555566152,259,38
0.0356716666618983,320,33
0.03882416665554047,378,32
0.042490555577807954,427,32
0.045513611104753285,485,32
0.048935555550787185,550,29
0.0522630555762185,608,27
0.05553944442007277,671,27
0.0592233333322737,725,27
0.06254722224341498,784,28
0.06550194442272186,842,31
0.06888805554972754,912,31
0.07220972220102946,978,32
0.0759063888920678,1024,32
0.07923138890001509,1056,30
0.08219027777512868,1083,30
0.08551333334710863,1111,29
0.08893416663010915,1140,30
0.09221194446086883,1168,31
0.09551222218407525,1239,32
0.09916666666666667,1313,34
0.10222194446457757,1381,35
0.10556333329942491,1457,37
0.1091558333237966,1533,37
0.11218527774016063,1597,37
0.11562138888570997,1664,39
0.1188872222105662,1711,42
0.12229166666666667,1770,43
0.12550138890743257,1834,43
0.12886805554231007,1907,43
0.13227833330631256,1984,44
0.13553888890478347,2053,44
0.13884694443808662,2119,45
0.1422133333153195,2198,46
0.14563666668203143,2272,47
0.1488411111301846,2356,48
0.15251194443967608,2433,47
0.15553833332326678,2494,47
0.1592308333184984,2563,47
0.16256833334763846,2631,47
0.16556861109203763,2701,47
0.16918666667408414,2784,47
0.17219722224606407,2861,47
0.17560388889577655,2946,46
0.17881944444444445,3040,46
0.18221305555767484,3113,47
0.185576666659779,3201,45
0.18905777778890398,3296,45
0.19218305554654863,3363,46
0.19559055553542243,3436,48
0.19885638886027865,3504,47
0.20220916668574015,3580,47
0.20551972223652734,3664,46
0.20890722221798366,3730,46
0.2122041666507721,3759,46
0.21579916662640042,3795,45
0.21886305557356941,3852,46
0.22224555552005767,3920,46
0.2255397222439448,3974,46
0.22885111113389334,4050,45
0.23219277779261271,4126,48
0.23551111108726924,4205,49
0.23903305557039048,4296,51
0.24222138888306088,4383,49
0.24555305553807152,4455,48
0.2491899999645021,4525,49
0.25223166664441427,4586,49
0.25550833331214057,4651,48
0.25890194442537096,4724,48
0.26218194444974263,4770,50
0.2655122221840753,4826,50
0.26886444442802004,4896,50
0.2724361111058129,4975,50
0.27554555555184684,5042,50
0.27885916663540733,5116,51
0.2822024999724494,5179,51
0.2855322221914927,5238,51
0.28887194441424474,5305,51
0.2923436111211777,5376,50
0.29561777777141995,5440,51
0.29888444443543755,5504,49
0.302188611096806,5573,49
0.30560083329677584,5643,49
0.30888194441795347,5711,51
0.31223166664441426,5783,51
0.3156005555391312,5809,51
0.3188944444391463,5832,50
0.3222158333328035,5894,51
0.32574916667408416,5958,54
0.3288822222418255,6017,54
0.3322119444608688,6089,54
0.3356324999862247,6176,56
0.3388802777396308,6254,56
0.34237361113230386,6336,56
0.3456899999909931,6416,56
0.3488724999957614,6492,56
0.3523991666899787,6579,56
0.35552972224023605,6650,57
0.3590586111280653,6722,59
0.36220777776506213,6788,59
0.3655372222264608,6853,59
0.3688797222243415,6922,59
0.37251861108673945,6987,59
0.3756977778010898,7040,60
0.37890777779950036,7101,59
0.3824283332957162,7163,63
0.3855291666587194,7222,63
0.38893027775817446,7289,65
0.3921966666645474,7359,65
0.39553472220897673,7459,65
0.399107222225931,7557,65
0.40218194444974265,7625,64
0.40557388888465035,7705,63
0.40892388886875575,7781,63
0.4122475000222524,7848,62
0.4155130555232366,7922,63
0.4189263888862398,7969,64
0.4223122221893734,8000,64
0.42579805552959443,8035,65
0.4290894444121255,8079,65
0.432195833325386,8135,65
0.4355386110809114,8220,65
0.43904388891326057,8293,65
0.4421783333354526,8352,65
0.44568444444073574,8416,64
0.44891527778572504,8482,65
0.45256249997350906,8544,65
0.4555797221925523,8610,67
0.4590791666507721,8691,67
0.4621880555152893,8759,67
0.4655447222126855,8821,68
0.46886611110634274,8870,68
0.4723772222465939,8937,68
0.47552361110846203,9000,67
0.47913944443066914,9071,66
0.48238722218407526,9121,67
0.48563222222858005,9184,66
0.4888738888502121,9232,66
0.4924094444513321,9296,66
0.49555805557303956,9352,64
0.498909166653951,9412,64
0.5021808333529366,9475,64
0.5055841666460037,9538,64
0.5089408333433999,9605,64
0.5121997221973207,9681,63
0.5155074999729792,9750,65
0.5190327777465185,9832,65
0.5222263888518015,9896,65
0.5255299999978807,9962,65
0.52886083331373,10029,65
0.5321949999862247,10102,65
0.5355133333471086,10173,65
0.5389272222254011,10245,65
0.5421919444534513,10322,65
0.5455447222126855,10394,65
0.5489652777380414,10464,64
0.5521755555603239,10530,65
0.5555538888772329,10592,65
0.559160277777248,10661,66
0.5623683333396912,10720,66
0.5655494444237815,10783,66
0.568956111073494,10848,66
0.5722716666592492,10912,67
0.5755472222301695,10946,67
0.5788619444105361,11009,68
0.5823074999782775,11072,70
0.5855888888570997,11124,72
0.5892236110899184,11186,72
0.5921769444147745,11232,72
0.595528333319558,11293,73
0.598895000020663,11344,72
0.6022691666417652,11414,72
0.605511666668786,11481,73
0.6090847222010295,11550,74
0.6122127778000301,11602,73
0.6159105555216471,11659,73
0.6188752777708901,11708,70
0.6222208333015442,11775,69
0.625525833302074,11825,68
0.6288450000021193,11878,69
0.6322080555227068,11936,70
0.6355313888523314,11980,71
0.6388947221967909,12042,72
0.6423013889127307,12096,72
0.6455477777454588,12162,72
0.6488988888925976,12224,72
0.6521900000174841,12292,73
0.6558180555370119,12355,72
0.6591111110978657,12412,72
0.6621902777751287,12451,72
0.6657363888952467,12509,71
0.6688599999745687,12557,71
0.6721691666709052,12619,71
0.6757836110724343,12685,72
0.678850277794732,12736,72
0.6824450000127157,12800,73
0.685675555533833,12864,72
0.6888783333036634,12926,73
0.6924566666285197,12973,71
0.6955769444174237,13025,70
0.69885361108515,13088,71
0.7022024999724494,13151,71
0.705570555528005,13211,71
0.7088877777920829,13258,71
0.7122694444656372,13317,71
0.7155483333269755,13377,71
0.7188811110787922,13446,71
0.7222055555714502,13517,71
0.7255516666836209,13583,72
0.728898611134953,13657,74
0.7321936111317741,13722,73
0.7355652778016196,13789,72
0.7390244444211324,13856,72
0.7422794444031185,13920,72
0.745527222222752,13992,73
0.7488925000031789,14048,74
0.7521972222460641,14114,71
0.7555544444587495,14174,71
0.7588913889063729,14222,71
0.7623236111137602,14273,71
0.7659224999613232,14326,71
0.7691702777809567,14366,71
0.7722252777549956,14407,71
0.7757752777470482,14464,73
0.7789349999692705,14520,72
0.7824688888920678,14564,71
0.7856411111354827,14615,72
0.7889924999740389,14656,72
0.7922316666444142,14709,73
0.795574166642295,14761,72
0.7988869444529215,14814,73
0.8021844444672267,14865,73
0.8055116666687859,14912,72
0.8088858333561155,14968,73
0.8125705555412505,15013,74
0.8158991666634877,15043,73
0.8191541666454739,15093,73
0.8222861111164093,15136,73
0.8255183333158493,15182,73
0.8290602777401607,15232,73
0.8321819444497426,15287,72
0.8356136110756133,15343,72
0.8391377777523464,15398,69
0.8422588888804118,15451,71
0.8456180555290645,15497,71
0.8489719444513321,15552,71
0.8522338889042537,15611,71
0.8557574999994702,15665,70
0.8588988888925976,15708,70
0.8625241666369968,15773,70
0.8658358333508174,15812,70
0.8689800000190735,15875,70
0.8724138889047834,15936,70
0.8757005555762185,16000,71
0.8791038888692856,16061,71
0.8822744444343779,16096,71
0.8855733333031336,16158,70
0.8888974999719196,16213,68
0.8922230555613836,16273,68
0.8958163888586892,16329,72
0.8991952777571148,16390,72
0.9024069444338481,16448,73
0.9055552777979109,16496,73
0.908899444407887,16558,72
0.9121761110756132,16611,71
0.9155888888570998,16677,72
0.9188841666777928,16736,72
0.9222397222121557,16798,72
0.9256252777576447,16849,72
0.9288555555211173,16896,73
0.9324841666883893,16960,72
0.9355977777640024,17023,70
0.9390452777677112,17079,70
0.9422175000111263,17132,72
0.9461066666576597,17184,73
0.948854722181956,17228,74
0.952664999961853,17288,74
0.955575277739101,17338,73
0.9589480555719799,17396,73
0.9622219444645775,17447,73
0.9655697221888436,17500,72
0.9688802777396308,17548,71
0.9724711110856799,17602,72
0.9758241666687859,17657,73
0.9790036110745536,17696,73
0.9821869444184833,17744,73
0.9858091666301092,17810,72
0.9888788888851802,17863,72
0.9924138889047834,17918,73
0.9955641666385863,17958,73
0.9988702778021494,18015,74
1.0022049999899334,18066,73
1.0055327777730094,18099,72
1.0089241666264004,18149,73
1.0127577777703602,18208,73
1.0155975000063577,18261,73
1.0188830555147594,18310,74
1.0222916666666666,18368,74
1.0257872221867244,18432,74
1.0288469444380866,18482,74
1.0322208333015441,18538,74
1.0357397221856648,18600,74
1.0388952777783076,18650,73
1.0424838888645171,18702,72
1.0456988888978958,18752,73
1.0488555555211174,18807,72
1.0522147222359974,18865,73
1.055598055521647,18917,73
1.058929722242885,18975,74
1.062493888868226,19025,72
1.066075833307372,19072,72
1.0688905555672115,19119,73
1.0721905555327733,19164,73
1.0755594444274903,19216,72
1.0789652777380414,19264,72
1.0822555555237665,19315,72
1.0855405555168787,19362,72
1.0890972222222222,19424,73
1.0922058333290947,19478,74
1.0955866666634877,19526,73
1.0989230555295944,19589,74
1.1023277777433396,19649,74
1.1057775000068877,19705,74
1.108910277750757,19769,73
1.1122127778000301,19835,73
1.1156094444460338,19903,73
1.1191272222333484,19962,73
1.1222288888692855,20008,74
1.1255463888910082,20076,73
1.1291197221808964,20139,73
1.1323666666613685,20192,73
1.1356883333126704,20257,73
1.139057499965032,20319,72
1.14220194445716,20376,72
1.145849444468816,20435,73
1.1488830555147596,20496,73
1.1521913888719346,20555,74
1.1555413888560402,20638,74
1.1591522222095065,20704,72
1.1622141666544807,20756,71
1.1658169444402058,20830,73
1.168906944460339,20883,72
1.1722738888528612,20928,72
1.1761033333010145,20997,72
1.1790841666857401,21056,72
1.1823572222391765,21121,72
1.1857772221830156,21188,73
1.1888599999745686,21244,74
1.1922244444158343,21299,72
1.195784166653951,21368,73
1.1989141666889191,21418,73
1.2022177777687708,21472,74
1.2056055555740992,21519,74
1.2089511111047533,21568,73
1.21219111111429,21614,72
1.2155516666836208,21666,72
1.218918611076143,21722,74
1.2222108332978354,21771,74
1.2258936111132304,21831,73
1.2293149999777475,21882,73
1.2322402777936723,21920,73
1.2355733333031336,21968,74
1.2391052777899636,22018,74
1.2425522222121557,22070,73
1.2459424999687407,22112,72
1.248858611120118,22144,73
1.2522647221883139,22200,73
1.2557749999894037,22251,72
1.2589277777406904,22298,71
1.2625049999687408,22334,72
1.2655716666910384,22379,73
1.2695288888613383,22432,72
1.2722741666767332,22471,71
1.2755547222163943,22524,72
1.2789213888512718,22573,73
1.2822352777587043,22625,74
1.2858199999729791,22673,74
1.2891433333026039,22720,74
1.2922205555438995,22776,74
1.2955469444062975,22826,74
1.2988611110713746,22880,74
1.302235833340221,22945,73
1.305714444451862,23008,73
1.3088686111238268,23068,74
1.3122366666793823,23122,73
1.3159263888994852,23178,72
1.31897888885604,23232,72
1.3222830555174085,23288,72
1.325625,23328,73
1.328929722242885,23382,72
1.3322305555476082,23428,73
1.3355366666449442,23479,72
1.3388838888539207,23530,72
1.3422138888968362,23584,72
1.345849444468816,23654,73
1.3488605555560853,23704,73
1.3521949999862246,23766,74
1.3555500000052982,23820,74
1.3591122221946716,23878,74
1.3623352777957916,23936,74
1.3655913888745839,23987,74
1.3688955555359523,24038,73
1.372192222211096,24107,74
1.3755980555216472,24172,73
1.3789300000005298,24232,73
1.3822033333116108,24261,73
1.3857886111074025,24325,74
1.3889191666576597,24387,74
1.3922855555348925,24448,73
1.3958019444677565,24512,73
1.3988925000031789,24569,73
1.4026611110899183,24633,73
1.405575277739101,24680,72
1.4088577777809568,24739,72
1.4122072221835453,24801,74
1.415911111103164,24869,74
1.4190063888496822,24928,74
1.4222316666444144,24992,74
1.4255872222450043,25056,73
1.428949166668786,25120,74
1.4323041666878595,25176,72
1.43551777780056,25236,72
1.4391402777698306,25308,73
1.4422061110867395,25363,72
1.4455716666910383,25423,73
1.4488611110713747,25480,73
1.4521938888894188,25544,73
1.4555302777555255,25603,73
1.4590752777788374,25664,73
1.4622161110904481,25716,73
1.4657933333184985,25767,71
1.4690205555491977,25824,72
1.4722524999909932,25881,72
1.4755827777915531,25940,72
1.4788819444179535,25996,74
1.4822716666592493,26052,73
1.4860938888788224,26112,74
1.488925833304723,26154,74
1.4924463888671664,26208,74
1.4955372222264607,26259,74
1.4988780555460188,26295,73
1.502247777779897,26319,73
1.5058461111121708,26342,73
1.5091102777587042,26400,74
1.5122283333539963,26456,72
1.5155816666285198,26505,70
1.519105833305253,26560,70
1.5222197222047382,26609,70
1.5255213888486225,26660,71
1.5291116666793823,26720,73
1.532247777779897,26782,72
1.5357611111137601,26843,73
1.5388969444566303,26889,73
1.5421941666470633,26949,74
1.5458247221840753,27019,74
1.5489536111222373,27072,73
1.5522966666354074,27136,73
1.5555591666698456,27201,73
1.5588941666815015,27264,74
1.5622558333476384,27329,74
1.5656072221861945,27352,74
1.568851388891538,27401,74
1.5722086111042235,27461,73
1.5756011111206478,27515,73
1.5789138888650471,27560,72
1.5823608333534664,27616,74
1.5855358333057827,27679,73
1.5888580555386014,27738,74
1.5922286111116408,27804,74
1.5957761110862096,27864,74
1.599115555551317,27921,72
1.6022288888692855,27984,72
1.6055230555269453,28051,74
1.6089016666677263,28112,73
1.6124013888835906,28183,73
1.6156008332967757,28237,72
1.6191866666740842,28289,73
1.6222833333412807,28352,72
1.6255638888809416,28418,74
1.6292322222391764,28480,74
1.6322122222185136,28529,70
1.6355383333232667,28588,71
1.6388788888851802,28643,71
1.6422213888830608,28694,72
1.6455888888570998,28743,73
1.6489355555507872,28803,73
1.6523608333534665,28864,73
1.655622499982516,28928,74
1.6588874999682108,28990,73
1.6624772222174538,29058,73
1.6656144444147747,29120,72
1.6692338888512717,29188,73
1.6721977777613535,29245,71
1.675571944448683,29309,73
1.6791369444131852,29370,74
1.68238194445769,29409,74
1.6855502777629428,29457,74
1.6888650000095367,29515,74
1.6922083333465787,29583,73
1.695649999976158,29653,72
1.6988780555460188,29713,73
1.7022855555348926,29774,73
1.7055988888608085,29842,73
1.7091236111190584,29896,72
1.7122516666518317,29954,73
1.7155252777867847,30021,72
1.719135833316379,30111,72
1.7222075000074175,30188,72
1.7255783333381016,30261,73
1.7288652777671814,30334,74
1.732419444455041,30400,74
1.7355616666873297,30472,73
1.7388647221856648,30550,73
1.7422466666830911,30623,72
1.7456825000047684,30688,72
1.7488958332935969,30745,73
1.7522097222010296,30812,73
1.7555336111121707,30884,74
1.7588711110750834,30957,74
1.76239277780056,31041,74
1.7655249999629126,31110,74
1.769090277751287,31194,74
1.7724402778016197,31264,74
1.7756222222248714,31328,73
1.7790869444608688,31404,74
1.7821975000037087,31442,74
1.7859155555566153,31502,73
1.789167222181956,31569,73
1.7922399999698002,31627,73
1.7955697221888436,31685,73
1.7988727777534061,31759,72
1.8025475000010596,31834,74
1.8055977777640024,31886,73
1.8089344444539812,31958,71
1.812201666633288,32035,72
1.8155641666385862,32106,71
1.818888888888889,32186,73
1.8222455555200576,32259,72
1.8255322221914927,32324,74
1.8292894444200727,32395,72
1.8324974999825159,32439,72
1.8355605555242962,32492,72
1.8391736110713748,32553,72
1.8425536111328338,32613,72
1.8458097222116259,32689,72
1.8488827777571148,32766,71
1.8522105555401909,32834,72
1.8556372221973207,32897,73
1.8590983333190283,32975,74
1.8624280555380714,33029,73
1.8657688888576296,33089,74
1.8689836111333635,33153,73
1.8722102777825462,33225,71
1.875553888877233,33291,73
1.8788661111063427,33378,72
1.882248888876703,33453,73
1.8858250000079473,33500,73
1.8888888888888888,33564,74
1.8923183333211475,33625,74
1.8955558333132,33690,74
1.8989052777820163,33773,73
1.9024638888570997,33856,73
1.9057724999719197,33934,73
1.9088838888539208,34000,74
1.9122077777650621,34059,73
1.9155500000052983,34122,71
1.919140833351347,34178,72
1.9222191666894488,34239,74
1.9258072221941418,34303,74
1.9290852777825462,34361,74
1.9322450000047684,34415,74
1.9355341666274601,34475,72
1.9389247222079171,34553,73
1.9423236111137603,34624,73
1.945668333305253,34686,74
1.949008055528005,34752,73
1.9522133333153195,34825,73
1.955634444422192,34913,74
1.9588777777883741,34985,73
1.9622277777724797,35055,74
1.9656808333264457,35125,74
1.968901944425371,35198,74
1.9721986111005148,35264,73
1.9758816666735544,35345,73
1.9788813889026642,35415,73
1.9822780555486679,35488,73
1.985549166666137,35555,73
1.9888908333248563,35633,73
1.992273333337572,35688,72
1.9957883333497577,35760,73
1.9989288889037238,35840,73
2.002273055579927,35904,74
2.005576666659779,35968,73
2.0091186110840904,36053,73
2.0122402777936723,36112,73
2.015600000023842,36176,73
2.018899722231759,36245,73
2.0221949999862248,36320,74
2.025823888911141,36403,74
2.0291205555200578,36471,74
2.0322797222269906,36526,74
2.0355641666385864,36599,73
2.0390075000127155,36671,73
2.0422119444608686,36752,74
2.0455358333057827,36834,74
2.0490872222185135,36926,74
2.0523672222428853,37002,73
2.0555572222338783,37075,73
2.0589122221867244,37153,71
2.062214166654481,37236,72
2.065578888853391,37309,73
2.069179722203149,37383,74
2.072564999990993,37442,73
2.0755383333232666,37502,73
2.0789061111211775,37577,74
2.082335555553436,37603,72
2.0857558333211474,37644,72
2.0889083333147895,37700,72
2.0922122222185133,37771,72
2.095567222237587,37847,73
2.098965833319558,37900,73
2.1024330555730395,37970,74
2.105567222237587,38029,73
2.109121944440736,38092,71
2.1126127777496975,38163,72
2.1155774999989405,38223,72
2.1188680555423103,38295,72
2.12241638885604,38380,73
2.125841666658719,38449,74
2.1288719444142448,38504,73
2.132204444408417,38580,73
2.135605833331744,38659,74
2.138921666675144,38738,73
2.1422866666316986,38816,72
2.1455624999602634,38885,73
2.1488763888676963,38967,73
2.1522516666518317,39040,74
2.1555447222126856,39115,72
2.1588630555735695,39195,72
2.1624566666285197,39265,72
2.165885555545489,39334,73
2.1690663888719346,39399,73
2.1724594444036485,39461,73
2.17563583334287,39521,74
2.179238333304723,39585,73
2.1824219444062973,39648,74
2.18560694442855,39710,72
2.1890305555529066,39731,74
2.192200000021193,39806,74
2.1956652777724797,39872,74
2.1988999999894037,39935,74
2.202257777783606,40000,74
2.2055480555693308,40067,74
2.208887777792083,40138,73
2.2122336110803817,40213,73
2.215824444426431,40278,73
2.2190450000100665,40353,74
2.2222263888518015,40427,73
2.225590000020133,40497,72
2.2288747221893734,40576,73
2.2322366666793823,40655,74
2.23555944442749,40729,73
2.238922500014305,40791,73
2.2423030555248262,40822,74
2.2457869444290797,40878,72
2.248878055546019,40953,71
2.2522188888655768,41013,72
2.255614999996291,41085,73
2.2590727777613533,41152,73
2.262269166641765,41227,74
2.2655436111158793,41283,74
2.268884722193082,41341,74
2.272295833296246,41401,73
2.2755436111158795,41450,73
2.2789166666401757,41504,74
2.2822024999724495,41580,73
2.2857772221830155,41660,73
2.289005555576748,41697,73
2.2924463888671665,41726,74
2.295622499982516,41777,74
2.299245000018014,41853,73
2.3023811111185286,41921,74
2.3055797221925522,41987,74
2.3088738888502123,42050,72
2.312465000020133,42112,73
2.3156569444470936,42177,74
2.3191008333365124,42254,74
2.3223875000079475,42318,74
2.325598333345519,42390,74
2.3292175000243716,42456,73
