Time (hours),Current Slot,Peers Connected
0.0,139845,74
0.0029816666576597426,139913,74
0.007008055514759488,140001,74
0.010027777751286824,140042,73
0.013050555520587497,140061,74
0.01656583329041799,140075,73
0.019706944425900777,140131,74
0.023007222215334574,140199,74
0.026845555504163107,140279,74
0.030292222168710498,140331,74
0.03325361106130812,140384,74
0.03626111110051473,140448,74
0.03969138887193468,140513,74
0.04317722221215566,140577,73
0.04640416661898295,140641,72
0.049974722199969825,140704,73
0.05296138889259762,140764,74
0.05657694439093272,140819,74
0.059892222219043306,140873,73
0.06294694443543752,140929,74
0.06682638883590698,141008,74
0.0697797222269906,141041,74
0.0731416666507721,141061,74
0.07682027777036031,141127,74
0.0796574999888738,141184,74
0.08337388886345758,141274,73
0.08651638885339101,141337,73
0.08964166667726305,141392,74
0.09328888886504703,141468,74
0.09649166663487753,141512,74
0.099636666642295,141568,74
0.10327611108620961,141643,74
0.10639499995443556,141698,74
0.10971749994489882,141760,74
0.1129508333073722,141824,74
0.11627749999364217,141888,74
0.1196222221851349,141953,74
0.12325277778837417,142017,74
0.12646972219149272,142081,74
0.12967027776771123,142139,74
0.1334149999750985,142194,74
0.13635444442431133,142241,74
0.13978499995337593,142304,74
0.14293027778466544,142368,74
0.14628666665818957,142428,74
0.15000694440470802,142493,74
0.15328333331478966,142541,74
0.15635722219944,142596,74
0.16020388887988196,142663,73
0.16327916661898295,142720,74
0.16639083332485624,142786,74
0.16968638883696663,142849,74
0.17318444444073572,142914,74
0.17628083328406016,142963,74
0.1799630555179384,143022,74
0.18337305552429622,143079,74
0.18672111107243433,143132,74
0.19008861111270056,143183,74
0.19297138889630636,143235,74
0.19667638884650337,143298,74
0.1998316666152742,143360,74
0.2029299999607934,143418,74
0.20631777776612176,143483,74
0.20958944439888,143525,74
0.21297305550840165,143586,74
0.2163180555237664,143648,74
0.22016749997933704,143717,74
0.2229519444041782,143777,74
0.22630888885921902,143840,74
0.22968722217612797,143904,74
0.23330555551581914,143980,74
0.23664111110899183,144048,74
0.239634444448683,144124,74
0.2436041666401757,144201,74
0.2463658332824707,144261,74
0.2500316666232215,144338,73
0.2529883333047231,144407,74
0.2567030555009842,144467,73
0.25971194439464146,144521,74
0.2629755555258857,144587,74
0.2663238888978958,144670,74
0.2702138888835907,144742,74
0.2729530555009842,144798,74
0.27630361106660634,144845,74
0.2799324999915229,144897,74
0.2830011110835605,144958,74
0.28628611107667284,145014,74
0.28981999999947017,145081,74
0.2930055555370119,145128,74
0.2964011110862096,145198,74
0.29967499997880725,145253,74
0.30304861108462017,145321,74
0.30690222216977014,145380,73
0.3096916666295793,145435,74
0.3129530555009842,145492,74
0.31628499997986687,145541,74
0.3198027777671814,145616,74
0.3234313888682259,145680,74
0.32692111108038163,145729,74
0.32989583333333333,145791,74
0.3330311110946867,145829,74
0.3367791666587194,145892,74
0.3397705555624432,145948,74
0.3433744444449743,146013,74
0.3467127777470483,146061,74
0.3501430555184682,146126,74
0.35307249996397233,146176,74
0.3564663888348473,146195,74
0.3598027777671814,146217,74
0.36313611110051475,146236,74
0.36681222220261894,146253,74
0.36978916664918265,146270,74
0.3729311110575994,146281,74
0.3764697221914927,146314,74
0.3796644443935818,146368,74
0.38296222223175896,146432,74
0.3868569444285499,146508,74
0.3902447221676509,146564,74
0.3929283332824707,146624,74
0.39628999994860753,146690,74
0.39964111109574635,146759,74
0.4029730555084017,146827,74
0.4063455555174086,146887,74
0.4096563888920678,146946,74
0.41302472220526804,147012,74
0.41638416661156546,147073,74
0.4196338888671663,147136,73
0.4230783333381017,147200,74
0.42638333333863154,147263,74
0.4296238888634576,147308,74
0.43299166666136846,147380,74
0.43666083329253724,147446,74
0.43967000001006656,147502,74
0.4429866666264004,147569,74
0.4463224999772178,147616,74
0.44977138883537715,147680,74
0.4529952777756585,147737,74
0.45626638889312743,147798,74
0.45962111108832887,147854,74
0.462921944393052,147909,74
0.46637027773592205,147974,74
0.4695547221766578,148032,74
0.47351972222328187,148101,74
0.47634083330631255,148160,74
0.47994555552800494,148183,74
0.48333444443013934,148198,74
0.4863908333248562,148214,74
0.48976555552747514,148228,74
0.4929272221856647,148248,74
0.4963152777486377,148297,74
0.4996644443935818,148363,73
0.5029530555009842,148428,74
0.5063499999708599,148493,74
0.5100572221808963,148556,74
0.5129922221766577,148632,74
0.5163022222121557,148694,73
0.519635555545489,148767,74
0.5230536111195883,148848,74
0.5263688888814714,148920,74
0.5296422221925523,148969,74
0.5334619443946415,149034,74
0.5363263888491525,149095,73
0.539847777750757,149187,73
0.5436611110634274,149250,73
0.5464088888963063,149270,73
0.549587222205268,149284,73
0.55302694439888,149295,74
0.5573188888364368,149312,74
0.5596211110883289,149324,73
0.5631444444259007,149338,74
0.5664811111158795,149357,74
0.5696500000026491,149393,74
0.5729983333084319,149457,73
0.5766599999533759,149514,73
0.5796738888820012,149569,74
0.583340833319558,149640,73
0.586359722216924,149688,73
0.5900424999660916,149741,74
0.5931872222158644,149792,74
0.5962694444259008,149842,74
0.5996949999862247,149894,74
0.6033280555407207,149955,74
0.6063233333163791,150013,74
0.6098844444089465,150060,74
0.612929166621632,150113,74
0.6167144444253709,150176,74
0.6196441666285197,150222,74
0.623116666674614,150272,74
0.6262905555301242,150316,74
0.6296752777364519,150369,74
0.6335372222132153,150432,74
0.6362588888406754,150465,74
0.6396505555179384,150522,74
0.6430508332782322,150574,74
0.6463261110915078,150626,74
0.6499283332957162,150688,74
0.6529983333084318,150731,74
0.6565011110570695,150784,74
0.6596111110846201,150843,74
0.6629561110999849,150884,74
0.6662472222248713,150944,74
0.6696022221777174,151000,74
0.6729497222105661,151056,74
0.6765508333179686,151111,74
0.6796258332994249,151168,74
0.6831677777237363,151236,74
0.6867011110650169,151296,74
0.6897069444259007,151343,73
0.6930169443951713,151400,74
0.6963155555062824,151456,74
0.699698055518998,151505,74
0.703387777739101,151559,74
0.7062961110803816,151615,74
0.7101411110825009,151680,74
0.7129538888401455,151727,74
0.7164222221904331,151781,74
0.7201549999581442,151843,74
0.7230283333195581,151892,72
0.726356111102634,151951,72
0.7297799999846353,152000,73
0.7329797222216924,152060,74
0.7362669444084168,152099,74
0.7397588888804117,152160,74
0.7430213888486227,152218,74
0.7468208332856496,152288,73
0.7496855555640327,152339,74
0.7533619444237815,152409,74
0.7568341666460037,152459,74
0.7604036110639573,152513,74
0.7634441666470634,152557,74
0.7662747222185134,152604,74
0.7697419444057676,152648,74
0.7730952777465184,152704,74
0.7763533333275053,152768,74
0.7796313888496823,152829,74
0.7830975000063578,152876,74
0.7867525000042386,152928,74
0.7896658333142599,152966,74
0.7931411110692554,153024,74
0.7966377777523465,153089,74
0.8001455555359522,153141,74
0.802966666618983,153188,74
0.8066386110915078,153249,74
0.8104508333073722,153300,74
0.8130966666671965,153311,74
0.8168055555555556,153324,74
0.8200200000074175,153342,74
0.8234088888433244,153358,74
0.8264641666412353,153374,74
0.8300974999533759,153392,74
0.8330299999978807,153413,74
0.8363249999947018,153465,74
0.8396555555529065,153520,74
0.8430002777443992,153574,74
0.846616666648123,153643,74
0.8501430555184682,153696,74
0.8529750000105963,153742,73
0.8563688888814714,153815,73
0.859636666642295,153862,74
0.8630269443988801,153902,73
0.8663258333338631,153944,74
0.8697049999899334,153992,74
0.873180277744929,154048,74
0.8762822222047382,154100,74
0.8796608332792918,154152,74
0.8828530555301243,154208,74
0.8862975000010597,154272,74
0.8896666666534212,154342,74
0.8929261110888587,154410,73
0.8963830555147595,154470,74
0.9001455555359522,154528,74
0.902985833287239,154587,73
0.9062674999899334,154632,74
0.909738055533833,154688,74
0.9130647222201029,154752,74
0.9163322222232818,154814,74
0.9196480555004544,154866,74
0.9234483333428701,154930,74
0.9262977777587043,154982,73
0.9296277777353923,155039,74
0.9333941666285197,155082,74
0.9363283332851198,155130,74
0.9396222221851349,155173,74
0.942978611058659,155234,74
0.9463705555597941,155301,74
0.9498775000042385,155361,74
0.9536130555470784,155392,73
0.9563580555386013,155424,73
0.9597191666232215,155489,73
0.9633124999867545,155552,74
0.9663686110575994,155600,73
0.9697411110666063,155667,74
0.9733219444089466,155728,74
0.9766619443893433,155776,74
0.9796177777316836,155834,74
0.9831869443919924,155905,74
0.9863644444280201,155969,74
0.9901525000068876,156032,73
0.9930461110671361,156084,73
0.9967466666301091,156145,74
1.0001683333184983,156200,74
1.0030500000052982,156252,74
1.0063127777311538,156300,74
1.0097088888618682,156356,74
1.0129936110973359,156416,74
1.0164863888422648,156480,74
1.0198711111148198,156544,74
1.0231077777677111,156610,74
1.0266499999496672,156672,74
1.0296255555417804,156731,74
1.0329647221830156,156775,74
1.0364938888947168,156842,74
1.0396713888645173,156900,74
1.0429688888788222,156968,74
1.0464013888438544,157043,74
1.0497308333052529,157100,74
1.0529486111137603,157157,74
1.056818333334393,157221,74
1.0598944444126552,157281,73
1.0629422222243414,157345,74
1.066474166644944,157408,73
1.069634444448683,157471,73
1.0730097222328185,157534,74
1.0763133333126704,157586,74
1.0796913888719346,157653,74
1.0830597221851348,157712,74
1.086740833322207,157761,74
1.089893888897366,157824,74
1.0929750000105964,157881,74
1.0963374999496671,157937,74
1.1001766666438844,157997,73
1.1034802777237362,158054,73
1.106674444410536,158109,74
1.1096347222063276,158163,74
1.1130061111185285,158239,73
1.116823055545489,158290,74
1.1198733333084319,158338,74
1.1232216666142145,158401,74
1.12635361108515,158443,73
1.1301836111148198,158498,74
1.1335258332888285,158548,74
1.1367900000015894,158593,74
1.140262777739101,158656,74
1.1429408333036635,158708,74
1.1463916666640175,158760,74
1.149932222167651,158816,74
1.1529963888724646,158877,73
1.156714444425371,158931,74
1.1601694444153043,158977,74
1.163502222167121,159027,74
1.1664036111036937,159074,74
1.1695297222004997,159136,74
1.1731049999925824,159201,74
1.1766699999570847,159264,74
1.1796444444523917,159310,74
1.1830577777491675,159361,74
1.1862938888867696,159413,74
1.189796944393052,159439,74
1.1932511111100514,159456,74
1.1964308333396911,159472,74
1.2001777777406903,159489,74
1.2029402777883742,159506,74
1.2068583332830005,159527,74
1.209598055548138,159541,74
1.212974166671435,159554,74
1.2168930555052226,159609,74
1.2197002777788375,159648,74
1.2229755555258857,159701,74
1.2265513888994852,159749,74
1.2298252777258556,159810,74
1.233368888894717,159863,74
1.2363397222095065,159905,74
1.2400863888528613,159978,74
1.2432022221883139,160033,74
1.2464094444115956,160074,74
1.2503311110867394,160136,74
1.2530049999554953,160175,74
1.2569355555375417,160232,74
1.2598422222004997,160281,74
1.263572222193082,160323,73
1.266382222175598,160361,74
1.269656944407357,160415,74
1.272962222231759,160462,74
1.2765686110655468,160512,74
1.2799016666412353,160578,74
1.2834922222296397,160645,74
1.28678777774175,160695,74
1.290247500009007,160743,74
1.2930877777602938,160801,74
1.2967333333359825,160863,74
1.3001099999745687,160905,74
1.3030533332957162,160940,73
1.3063291666242811,160992,74
1.3096899999512566,161046,74
1.3134799999660915,161100,73
1.317002499964502,161152,74
1.3196838888857099,161191,74
1.3232016666730244,161249,74
1.3263322222232818,161298,74
1.3296638888782926,161349,74
1.333196944395701,161408,74
1.3363424999846352,161470,74
1.339621111088329,161525,74
1.343485555516349,161598,74
1.346792499952846,161616,74
1.3496299999952317,161641,74
1.3533566666311687,161708,74
1.3563994444078868,161763,74
1.3601605555084018,161818,74
1.3630577777491675,161859,74
1.3669574999809264,161911,74
1.3695833333333334,161952,74
1.3730494444237815,162016,74
1.3763199999597338,162073,74
1.3801102777322134,162119,74
1.3833986110819712,162176,74
1.3863972222142749,162218,74
1.3896399999989404,162279,74
1.3930822222100363,162339,74
1.3967908333407508,162401,74
1.399695555501514,162456,74
1.4029986110660766,162497,74
1.4068933333290947,162560,74
1.4102477777666516,162592,74
1.41315222216977,162611,73
1.416886944439676,162664,73
1.4202588888671663,162721,74
1.4235191666417653,162777,74
1.4265983333190282,162819,73
1.4300002777576446,162880,73
1.4330316666762035,162923,74
1.436943333281411,162979,73
1.4396108333269755,163019,73
1.443176666630639,163072,72
1.446388888888889,163120,73
1.4498677777581745,163168,74
1.4529744444290797,163221,73
1.4565655555327732,163265,73
1.4596444444523917,163312,73
1.463004444440206,163362,73
1.4663841666115656,163411,74
1.4703019444147747,163461,74
1.4731277777751286,163498,74
1.4766905555460188,163554,74
1.4796577777465185,163609,74
1.4829516666465334,163658,74
1.486352499988344,163712,74
1.4896408333381017,163774,74
1.49302333328459,163818,74
1.4964397221803665,163857,74
1.5001886110835605,163912,74
1.5029936110973359,163966,74
1.5068033332957163,164023,74
1.5100161110692554,164067,73
1.5130655555592643,164116,74
1.516366666621632,164166,74
1.519630555510521,164224,74
1.5229699999756283,164286,73
1.5263288888666364,164331,74
1.5296647222174538,164384,74
1.5329966666301091,164443,74
1.5363105555375418,164493,74
1.5403199999862247,164557,74
1.5438661111063428,164608,74
1.5462913888692855,164653,74
1.5497941666179234,164704,74
1.553112777736452,164768,74
1.556307777762413,164815,74
1.559712777733803,164875,74
1.5635527777671814,164929,74
1.5663347221745385,164971,74
1.5698363888925977,165026,74
1.5734419444534513,165086,74
1.576359722216924,165132,74
1.5797677777873145,165184,74
1.5830011110835605,165242,74
1.586762777765592,165286,74
1.5897763888703451,165345,74
1.5936422222190434,165408,74
1.5963858332898881,165452,74
1.6003530555301242,165509,74
1.6030088888936573,165550,74
1.6065052777528763,165607,74
1.6101986110872692,165664,74
1.6129555555184683,165715,74
1.616377777788374,165756,74
1.6201855555507871,165808,74
1.622988333304723,165844,74
1.6264688888523313,165891,74
1.62998916665713,165951,74
1.633169722225931,165988,74
1.6369808332787619,166047,74
1.639752222167121,166080,74
1.6430241666237513,166130,74
1.646869999965032,166189,74
1.6496905555327734,166237,74
1.653011666668786,166279,74
1.656530833310551,166337,74
1.660338611072964,166400,74
1.66299972222911,166432,73
1.6663377777735393,166488,74
1.6696497221787772,166533,74
1.6730288888348472,166590,74
1.67678055551317,166638,74
1.6797186111079323,166680,74
1.6830191666550107,166738,74
1.6863819444179535,166784,74
1.689701666633288,166834,74
1.693150555557675,166880,74
1.6963769444492127,166925,74
1.7000355555613835,166976,74
1.703019999994172,167011,74
1.7070636110835604,167072,74
1.7099205555518469,167105,74
1.7130366666449441,167163,74
1.7163699999782773,167202,74
1.7196349999639724,167256,74
1.7229719444115956,167303,74
1.7264183333184984,167360,74
1.7297152777512868,167420,74
1.7330161110560098,167467,74
1.7363913888401454,167521,74
1.7400463888380262,167585,73
1.7436788888772328,167648,73
1.7462758333153194,167690,73
1.749701666633288,167744,73
1.7529108332925372,167776,73
1.7563283332851198,167833,74
1.7596700000100665,167876,74
1.7630033333433999,167936,74
1.7662786110904483,167999,74
1.7697566666205724,168041,74
1.7734058333105511,168101,74
1.7766841666566,168151,73
1.7797563888629278,168192,74
1.7831049999925825,168238,74
1.7865722221798368,168288,74
1.7896322221888437,168338,74
1.7929097221957313,168385,74
1.7969033333328035,168448,74
1.7996899999512566,168490,74
1.8030266666412353,168537,73
1.8067152777645323,168596,74
1.8099474999639722,168642,74
1.8134950000047683,168696,74
1.8164547222190432,168739,74
1.8196591666671964,168786,74
1.8230583333306842,168841,74
1.8264641666412353,168896,74
1.8298183333211475,168945,74
1.8335619444317288,168983,74
1.8363574999570846,169025,74
1.839674166639646,169077,74
1.8431111110581293,169121,74
1.8465405555566152,169184,74
1.849679166674614,169227,74
1.8535222221745384,169280,74
1.8566408332851199,169333,74
1.8598999999629127,169376,74
1.8629341666566002,169425,74
1.8663736110925675,169476,74
1.8696916666295793,169528,74
1.8735599999957615,169584,74
1.8767738888661067,169630,74
1.8800297221872542,169671,74
1.8829958332909478,169711,74
1.8865255555179383,169760,74
1.8896574999888738,169805,74
1.8929952777756585,169857,74
1.896293333305253,169910,74
1.899708888861868,169959,74
1.903637777765592,170016,74
1.9063424999846352,170055,74
1.9096674999925825,170106,74
1.9130477777454589,170150,74
1.9163341666592493,170197,74
1.919735555516349,170241,74
1.9235866666502424,170287,74
1.9263158333301544,170319,74
1.9296783333354526,170378,74
1.9335855555534363,170432,74
1.9364211110936271,170470,74
1.940142500003179,170528,74
1.9429455555147594,170577,74
1.9468566666709053,170634,74
1.9501888888412051,170691,74
1.9534811110628976,170727,74
1.956366666621632,170776,74
1.960213333302074,170825,74
1.9629627777470482,170862,74
1.966938611070315,170918,73
1.9697086111042235,170953,74
1.9733563888735242,171008,74
1.9763847221930821,171061,74
1.9797688888841205,171107,74
1.9834986111190585,171164,74
1.9866200000047685,171200,74
1.9896619444423251,171252,74
1.9929899999830458,171299,74
1.996771111090978,171356,74
2.000334166619513,171399,74
2.0035658333036634,171446,74
2.006243888868226,171488,74
2.009686666660839,171535,74
2.012991944419013,171585,74
2.016965277724796,171648,74
2.0197258333365125,171680,74
2.0230044444402058,171733,74
2.026871111061838,171794,74
2.03027277774281,171846,74
2.0334366666608386,171898,74
2.0363116666343477,171944,74
2.0398500000105964,172001,74
2.042989722225401,172040,74
2.046530833310551,172096,74
2.0496766666571298,172152,74
2.0530049999554953,172201,74
2.0568233333031336,172256,74
2.059804444445504,172296,74
2.0629094444380867,172352,74
2.0664522222015593,172396,73
2.0698602777719497,172452,74
2.0734555555052228,172498,74
2.0764427777793673,172545,74
2.0802622222238116,172608,74
2.08309972219997,172643,74
2.086961944434378,172701,74
2.0901463888751137,172736,74
2.09303416662746,172784,74
2.0964122221867245,172832,74
2.0996586110856796,172893,74
2.1034375,172956,74
2.1064505555232365,172992,74
2.1096336111095217,173037,74
2.113452222214805,173098,74
2.1162833333015443,173142,74
2.1196894444359673,173184,74
2.1229588888751136,173240,74
2.1263636110888586,173280,74
2.1296436111132304,173339,73
2.1335474999745685,173385,74
2.1369113888343176,173440,74
2.1397730555137,173479,74
2.143229722181956,173536,74
2.14628805551264,173580,73
2.1498249999682106,173634,74
2.1530822222100365,173685,74
2.1563044444057677,173735,74
2.159875833325916,173793,73
2.1630916666322286,173830,74
2.1668608333004844,173882,74
2.1697494443919925,173922,74
2.173126111096806,173969,74
2.1763733333349227,174021,74
2.1796297221713594,174066,73
2.183144166668256,174112,73
2.1863083333439297,174164,74
2.189977222217454,174211,74
2.193457777765062,174272,74
2.196324999994702,174319,74
2.200426388846503,174377,74
2.2032508332861793,174413,73
2.206544166670905,174464,74
2.209656944407357,174527,74
2.213025833302074,174566,74
2.216563611096806,174625,74
2.21980555554231,174673,74
