Time (min),Current Slot
342.32235000133517,139845
342.50125000079476,139913
342.7428333322207,140001
342.92401666641234,140042
343.1053833325704,140061
343.3162999987602,140075
343.50476666688917,140131
343.70278333425523,140199
343.93308333158495,140279
344.1398833314578,140331
344.31756666501366,140384
344.498016667366,140448
344.70383333365123,140513
344.9129833340645,140577
345.1065999984741,140641
345.3208333333333,140704
345.500033334891,140764
345.71696666479113,140819
345.91588333447777,140873
346.0991666674614,140929
346.33193333148955,141008
346.5091333349546,141041
346.71085000038147,141061
346.93156666755675,141127
347.1018000006676,141184
347.3247833331426,141274
347.5133333325386,141337
347.70085000197093,141392
347.91968333323797,141468
348.1118499994278,141512
348.3005499998728,141568
348.5189166665077,141643
348.70604999860126,141698
348.90539999802905,141760
349.09939999977746,141824
349.2990000009537,141888
349.4996833324432,141953
349.7175166686376,142017
349.9105333328247,142081
350.1025666673978,142139
350.32724999984106,142194
350.50361666679385,142241
350.7094499985377,142304
350.89816666841506,142368
351.0995500008265,142428
351.3227666656176,142493
351.5193500002225,142541
351.70378333330154,142596
351.93458333412804,142663
352.1190999984741,142720
352.30580000082654,142786
352.5035333315531,142849
352.7134166677793,142914
352.8991999983788,142963
353.12013333241146,143022
353.3247333327929,143079
353.5256166656812,143132
353.7276666680972,143183
353.9006333351135,143235
354.12293333212534,143298
354.3122499982516,143360
354.49814999898274,143418
354.70141666730245,143483
354.8977166652679,143525
355.10073333183925,143586
355.3014333327611,143648
355.5324000000954,143717
355.6994666655858,143777
355.90088333288827,143840
356.1035833319028,143904
356.3206833322843,143980
356.52081666787467,144048
356.70041666825614,144124
356.9385999997457,144201
357.1042999982834,144261
357.3242499987284,144338
357.5016499996185,144407
357.7245333313942,144467
357.90506666501363,144521
358.10088333288826,144587
358.3017833352089,144670
358.53518333435056,144742
358.6995333313942,144798
358.9005666653315,144845
359.11830000082654,144897
359.3024166663488,144958
359.4995166659355,145014
359.71155000130335,145081
359.90268333355584,145128
360.1064166665077,145198
360.3028500000636,145253
360.50526666641235,145321
360.73648333152136,145380
360.9038499991099,145435
361.0995333313942,145492
361.29945000012714,145541
361.510516667366,145616
361.7282333334287,145680
361.937616666158,145729
362.11610000133516,145791
362.30421666701636,145829
362.5291000008583,145892
362.70858333508176,145948
362.9248166680336,146013
363.125116666158,146061
363.33093333244324,146126
363.50669999917346,146176
363.710333331426,146195
363.91051666736604,146217
364.110516667366,146236
364.3310833334923,146253
364.5097000002861,146270
364.6982166647911,146281
364.9105333328247,146314
365.10221666495005,146368
365.3000833352407,146432
365.53376666704816,146508
365.7370333313942,146564
365.8980499982834,146624
366.0997499982516,146690
366.3008166670799,146759
366.5007333318392,146827
366.70308333237966,146887
366.9017333348592,146946
367.1038333336512,147012
367.3053999980291,147073
367.5003833333651,147136
367.70705000162127,147200
367.90535000165306,147263
368.0997833331426,147308
368.30185000101727,147380
368.5219999988874,147446
368.70255000193913,147502
368.90154999891917,147569
369.1016999999682,147616
369.30863333145777,147680
369.50206666787466,147737
369.6983333349228,147798
369.89961666663487,147854
370.0976666649183,147909
370.3045666654905,147974
370.4956333319346,148032
370.73353333473204,148101
370.9027999997139,148160
371.11908333301545,148183
371.3224166671435,148198
371.5058000008265,148214
371.7082833329836,148228
371.897983332475,148248
372.1012666662534,148297
372.30221666495004,148363
372.4995333313942,148428
372.70334999958675,148493
372.9257833321889,148556
373.10188333193463,148632
373.3004833340645,148694
373.5004833340645,148767
373.7055666685104,148848
373.9044833342234,148920
374.10088333288826,148969
374.33006666501365,149034
374.5019333322843,149095
374.71321666638056,149187
374.9420166651408,149250
375.10688333511354,149270
375.29758333365123,149284
375.50396666526797,149295
375.76148333152133,149312
375.89961666663487,149324
376.1110166668892,149338
376.3112166682879,149357
376.5013500014941,149393
376.70224999984106,149457
376.9219499985377,149514
377.1027833342552,149569
377.3228000005086,149640
377.50393333435056,149688
377.72489999930065,149741
377.913583334287,149792
378.09851666688917,149842
378.30405000050865,149894
378.5220333337784,149955
378.7017500003179,150013
378.91541666587193,150060
379.0980999986331,150113
379.3252166668574,150176
379.5009999990463,150222
379.70935000181197,150272
379.8997833331426,150316
380.10286666552224,150369
380.33458333412807,150432
380.49788333177565,150465
380.70138333241147,150522
380.90539999802905,150574
381.1019166668256,150626
381.31804999907814,150688
381.50224999984107,150731
381.7124166647593,150784
381.89901666641236,150843
382.09971666733423,150884
382.2971833348274,150944
382.4984833319982,151000
382.6993333339691,151056
382.9154000004133,151111
383.09989999930065,151168
383.3124166647593,151236
383.5244166652362,151296
383.7047666668892,151343
383.90336666504544,151400
384.10128333171207,151456
384.304233332475,151505
384.5256166656812,151559
384.70011666615807,151615
384.9308166662852,151680
385.0995833317439,151727
385.30768333276114,151781
385.5316499988238,151843
385.70405000050863,151892
385.9037166674932,151951
386.10915000041325,152000
386.3011333346367,152060
386.49836666584014,152099
386.7078833341599,152160
386.9036333322525,152218
387.13159999847414,152288
387.3034833351771,152339
387.52406666676205,152409
387.73240000009537,152459
387.94656666517255,152513
388.12900000015895,152557
388.29883333444593,152604
388.50686666568123,152648
388.70806666612623,152704
388.9035500009855,152768
389.10023333231607,152829
389.3082000017166,152876
389.52750000158943,152928
389.70230000019075,152966
389.9108166654905,153024
390.12061666647594,153089
390.3310833334923,153141
390.5003499984741,153188
390.7206666668256,153249
390.9493999997775,153300
391.10815000136694,153311
391.3306833346685,153324
391.52355000178017,153342
391.72688333193463,153358
391.91019999980927,153374
392.1281999985377,153392
392.304150001208,153413
392.50185000101726,153465
392.70168333450954,153520
392.90236666599907,153574
393.11935000022254,153643
393.33093333244324,153696
393.50085000197095,153742
393.7044833342234,153815
393.90054999987285,153862
394.10396666526793,153902
394.30190000136696,153944
394.50465000073115,153992
394.7131666660309,154048
394.89928333361945,154100
395.10199999809265,154152
395.2935333331426,154208
395.5002000013987,154272
395.70235000054043,154342
395.8979166666667,154410
396.1053333322207,154470
396.3310833334923,154528
396.5014999985695,154587
396.69840000073117,154632
396.9066333333651,154688
397.10623333454134,154752
397.30228333473207,154814
397.5012333313624,154866
397.72925000190736,154930
397.9002166668574,154982
398.10001666545867,155039
398.3259999990463,155082
398.5020499984423,155130
398.6996833324432,155173
398.9010666648547,155234
399.1045833349228,155301
399.31500000158945,155361
399.5391333341598,155392
399.70383333365123,155424
399.90549999872843,155489
400.1211000005404,155552
400.3044666647911,155600
400.50681666533154,155667
400.72166666587196,155728
400.92206666469576,155776
401.09941666523616,155834
401.3135666648547,155905
401.50421666701635,155969
401.73150000174843,156032
401.9051166653633,156084
402.1271499991417,156145
402.332450000445,156200
402.505350001653,156252
402.7011166652044,156300
402.9048833330472,156356
403.1019666671753,156416
403.31153333187103,156480
403.51461666822433,156544
403.7088166673978,156610
403.9213499983152,156672
404.09988333384194,156731
404.30023333231605,156775
404.51198333501816,156842
404.70263333320617,156900
404.90048333406446,156968
405.1064333319664,157043
405.30619999965035,157100
405.4992666681608,157157
405.73145000139874,157221
405.91601666609444,157281
406.09888333479563,157345
406.3108000000318,157408
406.50041666825615,157471
406.70293333530424,157534
406.90115000009536,157586
407.1038333336512,157653
407.30593333244326,157712
407.52680000066755,157761
407.7159833351771,157824
407.9008500019709,157881
408.10259999831516,157937
408.3329499999682,157997
408.5311666647593,158054
408.7228166659673,158109
408.90043333371483,158163
409.1027166684469,158239
409.3317333340645,158290
409.51474999984106,158338
409.71564999818804,158401
409.90356666644414,158443
410.1333666682243,158498
410.33389999866483,158548
410.5297500014305,158593
410.7381166656812,158656
410.89879999955497,158708
411.1058500011762,158760
411.3182833313942,158816
411.502133333683,158877
411.7252166668574,158931
411.93251666625343,158977
412.1324833313624,159027
412.30656666755675,159074
412.49413333336514,159136
412.7086500008901,159201
412.92254999876025,159264
413.1010166684786,159310
413.3058166662852,159361
413.4999833345413,159413
413.7101666649183,159439
413.91741666793826,159456
414.1082000017166,159472
414.3330166657766,159489
414.4987666686376,159506
414.7338499983152,159527
414.89823333422345,159541
415.1008000016212,159554
415.3359333316485,159609
415.5043666680654,159648
415.7008833328883,159701
415.9154333353043,159749
416.11186666488646,159810
416.32448333501816,159863
416.50273333390555,159905
416.7275333325068,159978
416.91448333263395,160033
417.1069166660309,160074
417.3422166665395,160136
417.5026499986649,160175
417.7384833335876,160232
417.91288333336513,160281
418.1366833329201,160323
418.305283331871,160361
418.5017666657766,160415
418.70008333524066,160462
418.91646666526793,160512
419.1164499998093,160578
419.3318833351135,160645
419.52961666584014,160695
419.7372000018756,160743
419.9076166669528,160801
420.1263500014941,160863
420.32894999980925,160905
420.50554999907814,160940
420.702099998792,160992
420.90374999841055,161046
421.13114999930065,161100
421.34249999920524,161152
421.50338333447775,161191
421.7144500017166,161249
421.90228333473203,161298
422.1021833340327,161349
422.3141666650772,161408
422.50290000041326,161470
422.6996166666349,161525
422.9314833323161,161598
423.1298999985059,161616
423.300150001049,161641
423.5237499992053,161708
423.70631666580834,161763
423.93198333183926,161818
424.1058166662852,161859
424.33980000019073,161911
424.4973500013351,161952
424.70531666676203,162016
424.90154999891917,162073
425.12896666526797,162119
425.3262666662534,162176
425.50618333419163,162218
425.70075000127156,162279
425.9072833339373,162339
426.1298000017802,162401
426.304083331426,162456
426.5022666652997,162497
426.7359500010808,162560
426.9372166673342,162592
427.11148333152136,162611
427.3355666677157,162664
427.53788333336513,162721
427.73349999984106,162777
427.91825000047686,162819
428.1223666667938,162880
428.30425000190735,162923
428.53894999821983,162979
428.6990000009537,163019
428.91294999917346,163072
429.10568333466847,163120
429.3144166668256,163168
429.5008166670799,163221
429.71628333330153,163265
429.90101666847863,163312
430.1026166677475,163362
430.3053999980291,163411
430.5404666662216,163461
430.71001666784286,163498
430.9237833340963,163554
431.10181666612624,163609
431.29945000012714,163658
431.50350000063577,163712
431.70080000162125,163774
431.90374999841055,163818
432.10873333215716,163857
432.3336666663488,163912
432.5019666671753,163966
432.7305499990781,164023
432.92331666549046,164067
433.106283334891,164116
433.3043499986331,164166
433.5001833319664,164224
433.70054999987286,164286
433.90208333333334,164331
434.1022333343824,164384
434.3021499991417,164443
434.50098333358767,164493
434.74155000050865,164557
434.9543166677157,164608
435.09983333349226,164653
435.30999999841055,164704
435.50911666552224,164768
435.70081666707995,164815
435.9051166653633,164875
436.135516667366,164929
436.30243333180744,164971
436.512533334891,165026
436.72886666854225,165086
436.9039333343506,165132
437.108416668574,165184
437.3024166663488,165242
437.52811666727064,165286
437.7089333335559,165345
437.94088333447775,165408
438.1054999987284,165452
438.3435333331426,165509
438.50288333495456,165550
438.71266666650774,165607
438.9342666665713,165664
439.09968333244325,165715
439.3050166686376,165756
439.53348333438237,165808
439.70164999961855,165844
439.91048333247505,165891
440.1217000007629,165951
440.312533334891,165988
440.54119999806085,166047
440.7074833313624,166080
440.90379999876023,166130
441.13454999923704,166189
441.30378333330157,166237
441.5030500014623,166279
441.71419999996823,166337
441.942666665713,166400
442.1023333350817,166432
442.3026166677475,166488
442.5013333320618,166533
442.704083331426,166590
442.9291833321253,166638
443.1054666678111,166680
443.3035000006358,166738
443.50526666641235,166784
443.70444999933244,166834
443.91138333479563,166880
444.1049666682879,166925
444.32448333501816,166976
444.50355000098546,167011
444.74616666634876,167072
444.91758333444596,167105
445.1045500000318,167163
445.3045500000318,167202
445.5004499991735,167256
445.7006666660309,167303
445.90745000044507,167360
446.1052666664124,167420
446.3033166646957,167467
446.5058333317439,167521
446.72513333161675,167585
446.9430833339691,167648
447.09890000025433,167690
447.3044499993324,167744
447.49699999888736,167776
447.7020499984423,167833
447.9025500019391,167876
448.10255000193916,167936
448.29906666676203,167999
448.50774999856947,168041
448.7266999999682,168101
448.92340000073114,168151
449.1077333331108,168192
449.3086500008901,168238
449.51668333212535,168288
449.7002833326658,168338
449.896933333079,168385
450.13655000130336,168448
450.3037499984105,168490
450.50394999980927,168537
450.7252666672071,168596
450.9191999991735,168642
451.1320500016212,168696
451.3096333344777,168739
451.50190000136695,168786
451.7058500011762,168841
451.91019999980927,168896
452.111450000604,168945
452.33606666723887,168983
452.5037999987602,169025
452.7027999997139,169077
452.9090166648229,169121
453.11478333473207,169184
453.30310000181197,169227
453.5336833318075,169280
453.7207999984423,169333
453.9163499991099,169376
454.09840000073115,169425
454.3047666668892,169476
454.5038499991099,169528
454.7359500010808,169584
454.92878333330157,169630
455.1241333325704,169671
455.302099998792,169711
455.51388333241147,169760
455.70180000066756,169805
455.90206666787464,169857
456.09994999965033,169910
456.30488333304726,169959
456.5406166672707,170016
456.70290000041325,170055
456.9024000008901,170106
457.1052166660627,170150
457.3024000008901,170197
457.50648333231607,170241
457.7375500003497,170287
457.9013000011444,170319
458.1030500014623,170378
458.33748333454133,170432
458.50761666695274,170470
458.73090000152587,170528
458.8990833322207,170577
459.1337500015895,170634
459.33368333180744,170691
459.531216665109,170727
459.70434999863306,170776
459.9351499994596,170825
460.10011666615804,170862
460.33866666555406,170918
460.50486666758854,170953
460.72373333374657,171008
460.9054333329201,171061
461.10848333438236,171107
461.33226666847867,171164
461.51955000162127,171200
461.70206666787465,171252
461.9017500003179,171299
462.12861666679385,171356
462.3423999985059,171399
462.53629999955496,171446
462.6969833334287,171488
462.9035500009855,171535
463.1018666664759,171585
463.3402666648229,171648
463.5059000015259,171680
463.7026166677475,171733
463.93461666504544,171794
464.1387166659037,171846
464.32855000098544,171898
464.501049999396,171944
464.7133500019709,172001
464.9017333348592,172040
465.1141999999682,172096
465.30295000076296,172152
465.5026499986649,172201
465.7317499995232,172256
465.9106166680654,172296
466.09691666762035,172352
466.3094833334287,172396
466.51396666765214,172452
466.7296833316485,172498
466.90891666809716,172545
467.13808333476385,172608
467.30833333333334,172643
467.5400666673978,172701
467.73113333384197,172736
467.90439999898274,172784
468.1070833325386,172832
468.3018666664759,172893
468.5286000013351,172956
468.7093833327293,172992
468.90036666790644,173037
469.12948333422344,173098
469.2993499994278,173142
469.50371666749317,173184
469.69988333384197,173240
469.90416666666664,173280
470.100966668129,173339
470.3351999998093,173385
470.5370333313942,173440
470.7087333321571,173479
470.9161333322525,173536
471.09963333209356,173580
471.3118499994278,173634
471.5072833339373,173685
471.7006166656812,173735
471.9149000008901,173793
472.10784999926886,173830
472.3339999993642,173882
472.50731666485467,173922
472.7099166671435,173969
472.9047500014305,174021
473.10013333161675,174066
473.3110000014305,174112
473.50085000197095,174164
473.72098333438237,174211
473.92981666723887,174272
474.1018500010172,174319
474.34793333212536,174377
474.51739999850594,174413
474.71500000158943,174464
474.90176666577656,174527
475.1038999994596,174566
475.3161666671435,174625
475.51068333387377,174673
475.7195666670799,174721
475.92094999949137,174770
476.1421833316485,174821
476.30861666599907,174856
476.5218000014623,174912
476.70096666812896,174961
476.92821666797005,175014
477.10115000009534,175057
477.31804999907814,175104
477.5018833319346,175142
477.70466666618984,175195
477.93025000095366,175251
478.1314500013987,175298
478.3021499991417,175351
478.50383333365124,175392
478.7066833337148,175431
478.92721666495004,175490
479.1257333318392,175546
479.3060499986013,175590
479.52913333177565,175655
479.72291666666666,175701
479.90314999818804,175747
480.1310333331426,175807
480.304150001208,175842
480.5213499983152,175890
480.74369999965035,175936
480.90528333187103,175972
481.1037833333015,176023
481.3450166662534,176078
481.54594999949137,176129
481.7321333328883,176173
481.9397666652997,176224
482.1116666674614,176256
482.309350001812,176293
482.5029666662216,176343
482.7356166680654,176391
482.89945000012716,176435
483.10875000158944,176480
483.3012333313624,176531
483.5070000012716,176576
483.7022166649501,176618
483.9009166677793,176664
484.1362499992053,176714
484.30789999961854,176747
484.50398333470025,176787
484.70486666758853,176825
484.9018833319346,176865
485.1065333326658,176927
485.302133333683,176971
485.50421666701635,177023
485.73375000158944,177068
485.9080000003179,177106
486.13389999866484,177160
486.30546666781106,177198
486.4955333352089,177248
486.70478333234786,177308
486.90154999891917,177360
487.13991666634877,177422
487.3139499982198,177468
487.50768333276113,177504
487.707299999396,177551
487.9095499992371,177600
488.10439999898273,177649
488.3048499981562,177696
488.50455000003177,177750
488.7152833342552,177803
488.9055499990781,177848
489.106283334891,177891
489.32748333215716,177947
489.5016166647275,177991
489.7347000002861,178053
489.90169999996823,178102
490.13071666558585,178155
490.30740000009536,178193
490.50613333384194,178240
490.7091666658719,178304
490.91238333384194,178361
491.12888333400093,178412
491.30356666644417,178448
491.5169166684151,178497
491.70203333298366,178554
491.9027999997139,178595
492.1264333327611,178657
492.3418833335241,178695
492.5070833325386,178738
492.70383333365123,178780
492.93018333514533,178826
493.09873333374657,178865
493.3064666668574,178913
