Time (hours),Current Slot
0.0,1
0.0025,68
0.005,128
0.0075,192
0.010555555555555556,257
0.013333333333333334,320
0.017222222222222222,385
0.01972222222222222,448
0.02277777777777778,512
0.025833333333333333,576
0.028888888888888888,640
0.03222222222222222,704
0.035555555555555556,768
0.03861111111111111,832
0.04138888888888889,896
0.04472222222222222,961
0.04861111111111111,1024
0.052222222222222225,1088
0.05611111111111111,1152
0.059166666666666666,1217
0.06194444444444445,1280
0.06444444444444444,1344
0.06722222222222222,1408
0.06972222222222223,1473
0.0725,1536
0.07583333333333334,1600
0.07805555555555556,1664
0.08138888888888889,1728
0.085,1792
0.08861111111111111,1856
0.09083333333333334,1920
0.09388888888888888,1984
0.09944444444444445,2048
0.10222222222222223,2112
0.10555555555555556,2178
0.10805555555555556,2240
0.11055555555555556,2304
0.11472222222222223,2370
0.11805555555555555,2432
0.12083333333333333,2497
0.12583333333333332,2560
0.12805555555555556,2624
0.1313888888888889,2688
0.1338888888888889,2754
0.13583333333333333,2816
0.13833333333333334,2880
0.14083333333333334,2946
0.14277777777777778,3008
0.145,3072
0.14805555555555555,3136
0.15055555555555555,3201
0.15388888888888888,3264
0.1575,3328
0.16027777777777777,3392
0.16333333333333333,3456
0.16666666666666666,3520
0.17027777777777778,3584
0.17277777777777778,3648
0.1763888888888889,3712
0.17972222222222223,3776
0.18444444444444444,3840
0.18694444444444444,3904
0.19027777777777777,3968
0.195,4032
0.19777777777777777,4096
0.20166666666666666,4160
0.20527777777777778,4224
0.2075,4288
0.21027777777777779,4352
0.2127777777777778,4416
0.21611111111111111,4482
0.21861111111111112,4544
0.22111111111111112,4608
0.22333333333333333,4672
0.22583333333333333,4736
0.2288888888888889,4800
0.2311111111111111,4864
0.2336111111111111,4930
0.23583333333333334,4992
0.23805555555555555,5056
0.24027777777777778,5120
0.24305555555555555,5184
0.24583333333333332,5248
0.24805555555555556,5312
0.25083333333333335,5376
0.2536111111111111,5440
0.2561111111111111,5504
0.2588888888888889,5568
0.26166666666666666,5632
0.2644444444444444,5696
0.26666666666666666,5760
0.27,5824
0.2733333333333333,5888
0.2761111111111111,5953
0.2786111111111111,6016
0.2811111111111111,6082
0.28305555555555556,6146
0.2852777777777778,6208
0.2877777777777778,6272
0.29,6336
0.2922222222222222,6400
0.2947222222222222,6464
0.2966666666666667,6529
0.29888888888888887,6592
0.3011111111111111,6657
0.3036111111111111,6722
0.30583333333333335,6784
0.30833333333333335,6848
0.31055555555555553,6912
0.31333333333333335,6976
0.3163888888888889,7040
0.3194444444444444,7105
0.32222222222222224,7168
0.325,7232
0.3275,7296
0.33,7361
0.33166666666666667,7424
0.33361111111111114,7489
0.33555555555555555,7552
0.3377777777777778,7616
0.34,7681
0.3422222222222222,7744
0.3447222222222222,7808
0.3472222222222222,7872
0.3497222222222222,7936
0.3522222222222222,8000
0.3552777777777778,8065
0.35888888888888887,8128
0.3611111111111111,8192
0.3636111111111111,8258
0.3655555555555556,8320
0.3688888888888889,8384
0.37194444444444447,8449
0.37472222222222223,8515
0.37777777777777777,8576
0.37972222222222224,8641
0.38222222222222224,8704
0.38472222222222224,8768
0.3875,8832
0.3902777777777778,8900
0.39305555555555555,8960
0.39611111111111114,9025
0.3988888888888889,9089
0.40194444444444444,9152
0.40444444444444444,9216
0.4075,9281
0.4102777777777778,9344
0.4127777777777778,9409
0.41555555555555557,9472
0.41805555555555557,9536
0.42083333333333334,9600
0.4230555555555556,9664
0.42583333333333334,9728
0.42833333333333334,9793
0.43083333333333335,9856
0.43333333333333335,9920
0.43583333333333335,9984
0.43833333333333335,10048
0.4411111111111111,10112
0.4438888888888889,10176
0.4461111111111111,10241
0.44805555555555554,10304
0.45055555555555554,10368
0.4533333333333333,10432
0.45555555555555555,10496
0.4583333333333333,10560
0.4608333333333333,10625
0.4636111111111111,10689
0.4666666666666667,10752
0.46944444444444444,10816
0.4722222222222222,10880
0.4752777777777778,10944
0.47833333333333333,11008
0.48138888888888887,11072
0.48527777777777775,11137
0.48833333333333334,11200
0.49166666666666664,11264
0.49472222222222223,11328
0.4975,11392
0.5002777777777778,11456
0.5027777777777778,11520
0.5058333333333334,11584
0.5091666666666667,11648
0.5127777777777778,11712
0.5158333333333334,11776
0.5186111111111111,11840
0.5216666666666666,11904
0.525,11968
0.5280555555555555,12032
0.5311111111111111,12096
0.5336111111111111,12160
0.5366666666666666,12224
0.5394444444444444,12289
0.5422222222222223,12353
0.5461111111111111,12416
0.5494444444444444,12480
0.5530555555555555,12544
0.5558333333333333,12609
0.5588888888888889,12673
0.5619444444444445,12736
0.565,12800
0.5677777777777778,12864
0.5708333333333333,12929
0.5741666666666667,12992
0.5772222222222222,13056
0.58,13120
0.5827777777777777,13184
0.5861111111111111,13248
0.5888888888888889,13312
0.5922222222222222,13376
0.595,13440
0.5975,13504
0.5997222222222223,13568
0.6025,13632
0.6052777777777778,13697
0.6080555555555556,13760
0.6108333333333333,13824
0.6138888888888889,13888
0.6161111111111112,13952
0.6188888888888889,14016
0.6216666666666667,14080
0.6244444444444445,14144
0.6280555555555556,14208
0.6319444444444444,14273
0.6355555555555555,14336
0.64,14401
0.6436111111111111,14464
0.6466666666666666,14529
0.6511111111111111,14593
0.6544444444444445,14656
0.6580555555555555,14720
0.6611111111111111,14784
0.665,14849
0.6686111111111112,14912
0.6719444444444445,14977
0.6761111111111111,15041
0.6802777777777778,15104
0.685,15169
0.6886111111111111,15232
0.6919444444444445,15296
0.695,15362
0.6986111111111111,15425
0.7022222222222222,15488
0.7055555555555556,15552
0.7086111111111111,15617
0.7125,15680
0.7158333333333333,15745
0.7194444444444444,15808
0.7225,15875
0.7255555555555555,15936
0.7286111111111111,16000
0.7319444444444444,16064
0.7352777777777778,16128
0.7388888888888889,16192
0.7419444444444444,16257
0.745,16320
0.7480555555555556,16384
0.7511111111111111,16448
0.7544444444444445,16512
0.7577777777777778,16576
0.7608333333333334,16640
0.7641666666666667,16704
0.7675,16768
0.7705555555555555,16833
0.7738888888888888,16896
0.7772222222222223,16960
0.7802777777777777,17024
0.7833333333333333,17088
0.7866666666666666,17153
0.7902777777777777,17216
0.7930555555555555,17280
0.7966666666666666,17344
0.8,17408
0.8033333333333333,17472
0.8072222222222222,17536
0.8108333333333333,17602
0.8141666666666667,17664
0.8180555555555555,17729
0.8216666666666667,17792
0.8244444444444444,17857
0.8280555555555555,17920
0.8316666666666667,17984
0.8347222222222223,18048
0.8394444444444444,18112
0.8433333333333334,18176
0.8466666666666667,18241
0.8502777777777778,18304
0.8533333333333334,18368
0.8566666666666667,18432
0.8602777777777778,18496
0.8630555555555556,18562
0.8661111111111112,18624
0.8694444444444445,18688
0.8736111111111111,18752
0.8769444444444444,18816
0.88,18880
0.8833333333333333,18944
0.8869444444444444,19009
0.8905555555555555,19072
0.8938888888888888,19137
0.8972222222222223,19201
0.9011111111111111,19264
0.9047222222222222,19328
0.9086111111111111,19392
0.9116666666666666,19457
0.915,19523
0.9177777777777778,19584
0.9208333333333333,19649
0.9244444444444444,19712
0.9269444444444445,19776
0.9294444444444444,19840
0.9322222222222222,19906
0.9352777777777778,19968
0.9380555555555555,20032
0.9411111111111111,20099
0.9438888888888889,20160
0.9472222222222222,20224
0.9497222222222222,20288
0.9533333333333334,20352
0.9558333333333333,20416
0.9586111111111111,20480
0.9616666666666667,20544
0.9641666666666666,20609
0.9666666666666667,20672
0.9697222222222223,20736
0.9727777777777777,20800
0.9758333333333333,20864
0.9791666666666666,20928
0.9819444444444444,20993
0.985,21056
0.9877777777777778,21121
0.9902777777777778,21184
0.9933333333333333,21248
0.9963888888888889,21313
0.9991666666666666,21376
1.0025,21441
1.0058333333333334,21504
1.0094444444444444,21568
1.0138888888888888,21632
1.0175,21696
1.0208333333333333,21760
1.0241666666666667,21825
1.0275,21888
1.031388888888889,21953
1.0358333333333334,22018
1.0394444444444444,22081
1.0438888888888889,22144
1.0475,22209
1.051388888888889,22273
1.055,22336
1.0586111111111112,22400
1.0630555555555556,22464
1.0666666666666667,22528
1.07,22593
1.073611111111111,22656
1.0775,22720
1.0811111111111111,22784
1.083888888888889,22848
1.0869444444444445,22912
1.0897222222222223,22976
1.0933333333333333,23040
1.0966666666666667,23106
1.0994444444444444,23168
1.1027777777777779,23232
1.106111111111111,23296
1.1097222222222223,23360
1.113611111111111,23424
1.1172222222222221,23488
1.12,23552
1.1227777777777779,23617
1.1258333333333332,23680
1.128611111111111,23745
1.1319444444444444,23808
1.1358333333333333,23872
1.1391666666666667,23936
1.1425,24000
1.1455555555555557,24064
1.1483333333333334,24128
1.1511111111111112,24192
1.1544444444444444,24256
1.1572222222222222,24320
1.1602777777777777,24385
1.1630555555555555,24448
1.1658333333333333,24512
1.1688888888888889,24577
1.1716666666666666,24640
1.175,24704
1.1777777777777778,24768
1.1805555555555556,24833
1.183888888888889,24896
1.1866666666666668,24960
1.1894444444444445,25024
1.1919444444444445,25088
1.195,25152
1.1977777777777778,25216
1.2002777777777778,25280
1.2030555555555555,25344
1.2061111111111111,25408
1.208888888888889,25472
1.2113888888888888,25536
1.2147222222222223,25600
1.2177777777777778,25664
1.221111111111111,25729
1.2244444444444444,25793
1.2275,25856
1.2305555555555556,25920
1.2336111111111112,25984
1.2369444444444444,26049
1.2402777777777778,26112
1.243611111111111,26176
1.2469444444444444,26240
1.2508333333333332,26305
1.255,26368
1.2577777777777779,26433
1.261388888888889,26496
1.2652777777777777,26560
1.2686111111111111,26624
1.2719444444444445,26688
1.2747222222222223,26752
1.2777777777777777,26816
1.281111111111111,26881
1.283611111111111,26946
1.2863888888888888,27008
1.2891666666666666,27072
1.2919444444444443,27136
1.2944444444444445,27201
1.2975,27264
1.3,27328
1.303611111111111,27393
1.3063888888888888,27456
1.3094444444444444,27520
1.3122222222222222,27584
1.315,27648
1.3183333333333334,27712
1.3211111111111111,27776
1.323888888888889,27840
1.3269444444444445,27904
1.3291666666666666,27968
1.3322222222222222,28033
1.3347222222222221,28096
1.3372222222222223,28160
1.34,28225
1.3430555555555554,28288
1.3458333333333334,28352
1.3488888888888888,28418
1.3519444444444444,28480
1.355,28544
1.3577777777777778,28608
1.3611111111111112,28672
1.3644444444444443,28736
1.3675,28800
1.3705555555555555,28864
1.3733333333333333,28928
1.376111111111111,28993
1.378611111111111,29058
1.3811111111111112,29120
1.383888888888889,29184
1.3869444444444445,29248
1.39,29313
1.3936111111111111,29376
1.396388888888889,29440
1.3994444444444445,29504
1.4022222222222223,29568
1.4047222222222222,29633
1.4075,29697
1.4102777777777777,29760
1.4130555555555555,29824
1.4155555555555555,29888
1.418611111111111,29953
1.4211111111111112,30016
1.4227777777777777,30080
1.425,30144
1.4272222222222222,30208
1.4294444444444445,30272
1.4316666666666666,30336
1.433888888888889,30400
1.436388888888889,30464
1.438611111111111,30528
1.4408333333333334,30592
1.4433333333333334,30657
1.4461111111111111,30720
1.4491666666666667,30784
1.4513888888888888,30848
1.4536111111111112,30912
1.4558333333333333,30977
1.4577777777777778,31041
1.4602777777777778,31104
1.4625,31168
1.4647222222222223,31233
1.4672222222222222,31296
1.47,31361
1.4727777777777777,31427
1.4752777777777777,31488
1.4783333333333333,31552
1.4808333333333332,31617
1.4827777777777778,31680
1.4852777777777777,31744
1.4877777777777779,31808
1.49,31872
1.4922222222222221,31936
1.4944444444444445,32000
1.496388888888889,32064
1.4986111111111111,32128
1.5008333333333332,32192
1.5030555555555556,32256
1.5052777777777777,32320
1.5075,32385
1.51,32448
1.5127777777777778,32513
1.5152777777777777,32578
1.5180555555555555,32641
1.5202777777777778,32704
1.5222222222222221,32768
1.5241666666666667,32834
1.5269444444444444,32896
1.5291666666666666,32961
1.5319444444444446,33024
1.5347222222222223,33089
1.5369444444444444,33153
1.5394444444444444,33216
1.541388888888889,33280
1.543611111111111,33344
1.5455555555555556,33408
1.5475,33472
1.55,33538
1.5525,33600
1.555,33664
1.5569444444444445,33728
1.558888888888889,33793
1.5611111111111111,33856
1.5633333333333332,33921
1.5658333333333334,33984
1.5680555555555555,34048
1.5705555555555555,34113
1.573611111111111,34176
1.576111111111111,34241
1.5788888888888888,34306
1.581388888888889,34368
1.583611111111111,34432
1.5858333333333334,34496
1.5883333333333334,34561
1.5905555555555555,34624
1.5927777777777778,34688
1.5952777777777778,34752
1.5972222222222223,34816
1.5994444444444444,34882
1.601388888888889,34944
1.603611111111111,35008
1.606111111111111,35072
1.6083333333333334,35136
1.6105555555555555,35201
1.6127777777777779,35264
1.6147222222222222,35328
1.6169444444444445,35392
1.6191666666666666,35456
1.6216666666666666,35520
1.6266666666666667,35584
1.6291666666666667,35648
1.631388888888889,35713
1.6336111111111111,35776
1.6358333333333333,35840
1.638611111111111,35904
1.6411111111111112,35968
1.6430555555555555,36032
1.6455555555555557,36096
1.6483333333333334,36160
1.6505555555555556,36224
1.6527777777777777,36288
1.655,36353
1.6572222222222222,36418
1.6594444444444445,36480
1.6619444444444444,36544
1.6644444444444444,36608
1.666388888888889,36672
1.6683333333333332,36736
1.67,36800
1.6719444444444445,36865
1.673888888888889,36928
1.6758333333333333,36993
1.6783333333333332,37056
1.6802777777777778,37120
1.6822222222222223,37184
1.6841666666666666,37248
1.6866666666666668,37312
1.6891666666666667,37377
1.6919444444444445,37440
1.6947222222222222,37504
1.6969444444444444,37568
1.7,37633
1.7033333333333334,37696
1.7058333333333333,37760
1.7083333333333333,37824
1.711111111111111,37888
1.7136111111111112,37953
1.7166666666666666,38016
1.7194444444444446,38080
1.7216666666666667,38144
1.7244444444444444,38208
1.7266666666666666,38272
1.7291666666666667,38338
1.7313888888888889,38401
1.7338888888888888,38464
1.736388888888889,38528
1.738611111111111,38592
1.7405555555555556,38656
1.7427777777777778,38720
1.745,38784
1.7469444444444444,38848
1.7494444444444444,38912
1.7516666666666667,38976
1.7538888888888888,39040
1.7561111111111112,39104
1.7583333333333333,39168
1.7605555555555557,39234
1.7630555555555556,39297
1.7652777777777777,39361
1.7686111111111111,39425
1.771388888888889,39488
1.7741666666666667,39552
1.7769444444444444,39616
1.78,39680
1.7827777777777778,39744
1.785,39809
1.7877777777777777,39872
1.7902777777777779,39936
1.7930555555555556,40000
1.7958333333333334,40064
1.7980555555555555,40128
1.8005555555555555,40192
1.8030555555555556,40256
1.8052777777777778,40321
1.8075,40384
1.81,40448
1.8122222222222222,40512
1.8141666666666667,40576
1.8163888888888888,40640
1.818888888888889,40704
1.821388888888889,40768
1.8241666666666667,40833
1.8269444444444445,40896
1.8291666666666666,40960
1.8319444444444444,41024
1.8344444444444445,41090
1.8369444444444445,41152
1.8394444444444444,41217
1.8419444444444444,41280
1.845,41344
1.8483333333333334,41408
1.8516666666666666,41472
1.8541666666666667,41536
1.8563888888888889,41601
1.8588888888888888,41665
1.861388888888889,41728
1.863888888888889,41793
1.8663888888888889,41856
1.868611111111111,41921
1.8711111111111112,41984
1.873888888888889,42049
1.8766666666666667,42112
1.8791666666666667,42177
1.881388888888889,42241
1.883888888888889,42304
1.886388888888889,42369
1.888611111111111,42432
1.8911111111111112,42497
1.893888888888889,42561
1.8969444444444445,42625
1.9002777777777777,42692
1.9030555555555555,42752
1.9058333333333333,42816
1.9077777777777778,42880
1.91,42944
1.9122222222222223,43009
1.9152777777777779,43072
1.9177777777777778,43136
1.9208333333333334,43200
1.9241666666666666,43264
1.9275,43328
1.9305555555555556,43393
1.9336111111111112,43456
1.936388888888889,43520
1.9391666666666667,43584
1.9416666666666667,43649
1.9447222222222222,43712
1.9472222222222222,43776
1.9502777777777778,43840
1.9530555555555555,43904
1.956388888888889,43968
1.9591666666666667,44032
1.9616666666666667,44096
1.9647222222222223,44160
1.9675,44224
1.9697222222222222,44288
1.9730555555555556,44353
1.9755555555555555,44417
1.9783333333333333,44480
1.9805555555555556,44546
1.9830555555555556,44608
1.9858333333333333,44672
1.988611111111111,44736
1.991111111111111,44800
1.9944444444444445,44865
1.9972222222222222,44928
2.0005555555555556,44992
2.0030555555555556,45056
2.0058333333333334,45120
2.0083333333333333,45184
2.0108333333333333,45248
2.013611111111111,45312
2.016111111111111,45376
2.018611111111111,45440
2.0216666666666665,45504
2.0241666666666664,45568
2.0269444444444447,45632
2.03,45698
2.0327777777777776,45760
2.0355555555555553,45824
2.0383333333333336,45888
2.0408333333333335,45952
2.0433333333333334,46016
2.046388888888889,46080
2.049166666666667,46144
2.0522222222222224,46208
2.055,46272
2.058333333333333,46337
2.061111111111111,46401
2.0641666666666665,46464
2.0675,46528
2.0702777777777777,46593
2.0733333333333333,46656
2.0766666666666667,46722
2.0805555555555557,46784
2.0841666666666665,46848
2.0877777777777777,46912
2.0902777777777777,46976
2.0930555555555554,47040
2.0966666666666667,47104
2.0997222222222223,47168
2.1033333333333335,47232
2.106388888888889,47296
2.1102777777777777,47360
2.1130555555555555,47424
2.116388888888889,47489
2.1194444444444445,47552
2.1222222222222222,47616
2.125277777777778,47680
2.1286111111111112,47744
2.131666666666667,47808
2.1341666666666668,47872
2.1366666666666667,47936
2.1394444444444445,48000
2.1425,48064
2.1458333333333335,48129
2.1486111111111112,48192
2.1508333333333334,48256
2.153611111111111,48321
2.1566666666666667,48384
2.1597222222222223,48449
2.1638888888888888,48513
2.167777777777778,48576
2.171111111111111,48641
2.174166666666667,48705
2.1775,48768
2.180277777777778,48833
2.1825,48896
2.1855555555555557,48961
2.188888888888889,49025
2.1919444444444443,49091
2.1955555555555555,49152
2.198888888888889,49216
2.2022222222222223,49280
2.2055555555555557,49344
2.2086111111111113,49410
2.2125,49472
2.216388888888889,49536
2.2197222222222224,49600
2.222777777777778,49664
2.226111111111111,49729
2.2305555555555556,49793
2.233611111111111,49856
2.237222222222222,49920
2.2408333333333332,49984
2.2447222222222223,50048
2.2483333333333335,50112
2.2505555555555556,50176
2.2536111111111112,50243
2.2569444444444446,50305
2.2608333333333333,50368
2.2647222222222223,50432
2.2688888888888887,50497
2.272777777777778,50560
2.2758333333333334,50624
2.279166666666667,50688
2.2830555555555554,50754
2.2872222222222223,50816
2.2913888888888887,50880
2.2955555555555556,50944
2.2994444444444446,51008
2.303888888888889,51072
2.3072222222222223,51136
2.3108333333333335,51201
2.3141666666666665,51264
2.3177777777777777,51328
2.321388888888889,51393
2.3244444444444445,51456
2.327777777777778,51521
2.3305555555555557,51584
2.3338888888888887,51648
2.3369444444444443,51712
2.34,51776
2.3427777777777776,51841
2.3455555555555554,51905
2.3480555555555553,51968
2.3505555555555557,52032
2.3533333333333335,52096
2.3566666666666665,52161
2.3602777777777777,52224
